   JD		  x [m]		  y [m]		  z [m]
   0.0000000e+00  -5.6051076e+03  -2.9027657e+03   4.5365087e+03
   1.1574074e-03  -5.7800504e+03  -3.4656422e+03   3.8627425e+03
   2.3148148e-03  -5.8772765e+03  -3.9807563e+03   3.1388970e+03
   3.4722222e-03  -5.8958768e+03  -4.4413178e+03   2.3751788e+03
   4.6296296e-03  -5.8360749e+03  -4.8414008e+03   1.5822356e+03
   5.7870370e-03  -5.6991923e+03  -5.1760084e+03   7.7098293e+02
   6.9444444e-03  -5.4875981e+03  -5.4411199e+03  -4.7563512e+01
   8.1018519e-03  -5.2046456e+03  -5.6337197e+03  -8.6244699e+02
   9.2592593e-03  -4.8545978e+03  -5.7518094e+03  -1.6629191e+03
   1.0416667e-02  -4.4425451e+03  -5.7944070e+03  -2.4385781e+03
   1.1574074e-02  -3.9743167e+03  -5.7615314e+03  -3.1794957e+03
   1.2731481e-02  -3.4563869e+03  -5.6541770e+03  -3.8763324e+03
   1.3888889e-02  -2.8957774e+03  -5.4742760e+03  -4.5204400e+03
   1.5046296e-02  -2.2999577e+03  -5.2246532e+03  -5.1039531e+03
   1.6203704e-02  -1.6767438e+03  -4.9089707e+03  -5.6198675e+03
   1.7361111e-02  -1.0341956e+03  -4.5316651e+03  -6.0621058e+03
   1.8518519e-02  -3.8051618e+02  -4.0978791e+03  -6.4255712e+03
   1.9675926e-02   2.7604850e+02  -3.6133853e+03  -6.7061876e+03
   2.0833333e-02   9.2730658e+02  -3.0845069e+03  -6.9009266e+03
   2.1990741e-02   1.5652136e+03  -2.5180341e+03  -7.0078226e+03
   2.3148148e-02   2.1819612e+03  -1.9211380e+03  -7.0259749e+03
   2.4305556e-02   2.7700596e+03  -1.3012837e+03  -6.9555379e+03
   2.5462963e-02   3.3224145e+03  -6.6614357e+02  -6.7977015e+03
   2.6620370e-02   3.8323962e+03  -2.3511161e+01  -6.5546609e+03
   2.7777778e-02   4.2939026e+03   6.1878228e+02  -6.2295779e+03
   2.8935185e-02   4.7014142e+03   1.2529488e+03  -5.8265357e+03
   3.0092593e-02   5.0500427e+03   1.8713211e+03  -5.3504863e+03
   3.1250000e-02   5.3355732e+03   2.4664269e+03  -4.8071948e+03
   3.2407407e-02   5.5545001e+03   3.0310588e+03  -4.2031783e+03
   3.3564815e-02   5.7040582e+03   3.5583420e+03  -3.5456422e+03
   3.4722222e-02   5.7822492e+03   4.0417977e+03  -2.8424143e+03
   3.5879630e-02   5.7878638e+03   4.4754056e+03  -2.1018754e+03
   3.7037037e-02   5.7205016e+03   4.8536637e+03  -1.3328876e+03
   3.8194444e-02   5.5805863e+03   5.1716473e+03  -5.4471884e+02
   3.9351852e-02   5.3693788e+03   5.4250672e+03   2.5303720e+02
   4.0509259e-02   5.0889860e+03   5.6103285e+03   1.0505469e+03
   4.1666667e-02   4.7423649e+03   5.7245870e+03   1.8378299e+03
   4.2824074e-02   4.3333204e+03   5.7658064e+03   2.6048604e+03
   4.3981481e-02   3.8664956e+03   5.7328114e+03   3.3416785e+03
   4.5138889e-02   3.3473510e+03   5.6253378e+03   4.0385113e+03
   4.6296296e-02   2.7821321e+03   5.4440754e+03   4.6859042e+03
   4.7453704e-02   2.1778213e+03   5.1907017e+03   5.2748609e+03
   4.8611111e-02   1.5420730e+03   4.8679023e+03   5.7969907e+03
   4.9768519e-02   8.8313081e+02   4.4793762e+03   6.2446588e+03
   5.0925926e-02   2.0972482e+02   4.0298212e+03   6.6111363e+03
   5.2083333e-02  -4.6904920e+02   3.5248977e+03   6.8907441e+03
   5.3240741e-02  -1.1438680e+03   2.9711690e+03   7.0789847e+03
   5.4398148e-02  -1.8053329e+03   2.3760177e+03   7.1726563e+03
   5.5555556e-02  -2.4441326e+03   1.7475377e+03   7.1699432e+03
   5.6712963e-02  -3.0512098e+03   1.0944059e+03   7.0704774e+03
   5.7870370e-02  -3.6179281e+03   4.2573519e+02   6.8753673e+03
   5.9027778e-02  -4.1362318e+03  -2.4908552e+02   6.5871922e+03
   6.0185185e-02  -4.5987931e+03  -9.2055944e+02   6.2099617e+03
   6.1342593e-02  -4.9991422e+03  -1.5792518e+03   5.7490410e+03
   6.2500000e-02  -5.3317751e+03  -2.2159564e+03   5.2110469e+03
   6.3657407e-02  -5.5922382e+03  -2.8218524e+03   4.6037173e+03
   6.4814815e-02  -5.7771866e+03  -3.3886485e+03   3.9357614e+03
   6.5972222e-02  -5.8844175e+03  -3.9087095e+03   3.2166952e+03
   6.7129630e-02  -5.9128790e+03  -4.3751642e+03   2.4566688e+03
   6.8287037e-02  -5.8626571e+03  -4.7819933e+03   1.6662915e+03
   6.9444444e-02  -5.7349434e+03  -5.1240971e+03   8.5645806e+02
   7.0601852e-02  -5.5319859e+03  -5.3973441e+03   3.8180399e+01
   7.1759259e-02  -5.2570274e+03  -5.5986018e+03  -7.7757252e+02
   7.2916667e-02  -4.9142319e+03  -5.7257515e+03  -1.5800250e+03
   7.4074074e-02  -4.5086031e+03  -5.7776880e+03  -2.3587341e+03
   7.5231481e-02  -4.0458965e+03  -5.7543067e+03  -3.1037178e+03
   7.6388889e-02  -3.5325254e+03  -5.6564786e+03  -3.8055708e+03
   7.7546296e-02  -2.9754645e+03  -5.4860154e+03  -4.4555693e+03
   7.8703704e-02  -2.3821497e+03  -5.2456243e+03  -5.0457628e+03
   7.9861111e-02  -1.7603766e+03  -4.9388546e+03  -5.5690540e+03
   8.1018519e-02  -1.1181988e+03  -4.5700360e+03  -6.0192663e+03
   8.2175926e-02  -4.6382567e+02  -4.1442111e+03  -6.3911981e+03
   8.3333333e-02   1.9447781e+02  -3.6670603e+03  -6.6806647e+03
   8.4490741e-02   8.4848854e+02  -3.1448234e+03  -6.8845265e+03
   8.5648148e-02   1.4901195e+03  -2.5842163e+03  -7.0007057e+03
   8.6805556e-02   2.1115091e+03  -1.9923461e+03  -7.0281891e+03
   8.7962963e-02   2.7051047e+03  -1.3766239e+03  -6.9670206e+03
   8.9120370e-02   3.2637404e+03  -7.4467879e+02  -6.8182816e+03
   9.0277778e-02   3.7807076e+03  -1.0427182e+02  -6.5840623e+03
   9.1435185e-02   4.2498182e+03   5.3678773e+02  -6.2674243e+03
   9.2592593e-02   4.6654616e+03   1.1707232e+03  -5.8723550e+03
   9.3750000e-02   5.0226536e+03   1.7898685e+03  -5.4037174e+03
   9.4907407e-02   5.3170799e+03   2.3867420e+03  -4.8671930e+03
   9.6064815e-02   5.5451328e+03   2.9541176e+03  -4.2692225e+03
   9.7222222e-02   5.7039432e+03   3.4850915e+03  -3.6169417e+03
   9.8379630e-02   5.7914074e+03   3.9731473e+03  -2.9181163e+03
   9.9537037e-02   5.8062106e+03   4.4122173e+03  -2.1810724e+03
   1.0069444e-01   5.7478464e+03   4.7967431e+03  -1.4146255e+03
   1.0185185e-01   5.6166335e+03   5.1217347e+03  -6.2800535e+02
   1.0300926e-01   5.4137288e+03   5.3828286e+03   1.6922393e+02
   1.0416667e-01   5.1411372e+03   5.5763466e+03   9.6724864e+02
   1.0532407e-01   4.8017162e+03   5.6993524e+03   1.7560980e+03
   1.0648148e-01   4.3991751e+03   5.7497089e+03   2.5257448e+03
   1.0763889e-01   3.9380655e+03   5.7261320e+03   3.2662155e+03
   1.0879630e-01   3.4237632e+03   5.6282409e+03   3.9677102e+03
   1.0995370e-01   2.8624359e+03   5.4566023e+03   4.6207336e+03
   1.1111111e-01   2.2609980e+03   5.2127650e+03   5.2162334e+03
   1.1226852e-01   1.6270471e+03   4.8992826e+03   5.7457477e+03
   1.1342593e-01   9.6878314e+02   4.5197203e+03   6.2015549e+03
   1.1458333e-01   2.9490764e+02   4.0786432e+03   6.5768239e+03
   1.1574074e-01  -3.8549531e+02   3.5815824e+03   6.8657594e+03
   1.1689815e-01  -1.0630959e+03   3.0349789e+03   7.0637345e+03
   1.1805556e-01  -1.7284698e+03   2.4461021e+03   7.1674078e+03
   1.1921296e-01  -2.3722600e+03   1.8229456e+03   7.1748160e+03
   1.2037037e-01  -2.9853446e+03   1.1741009e+03   7.0854385e+03
   1.2152778e-01  -3.5590039e+03   5.0861282e+02   6.9002301e+03
   1.2268519e-01  -4.0850817e+03  -1.6417882e+02   6.6216187e+03
   1.2384259e-01  -4.5561351e+03  -8.3480623e+02   6.2534681e+03
   1.2500000e-01  -4.9655665e+03  -1.4938433e+03   5.8010074e+03
   1.2615741e-01  -5.3077352e+03  -2.1320722e+03   5.2707291e+03
   1.2731481e-01  -5.5780445e+03  -2.7406413e+03   4.6702611e+03
   1.2847222e-01  -5.7730033e+03  -3.3112106e+03   4.0082189e+03
   1.2962963e-01  -5.8902626e+03  -3.8360796e+03   3.2940424e+03
   1.3078704e-01  -5.9286268e+03  -4.3082981e+03   2.5378232e+03
   1.3194444e-01  -5.8880434e+03  -4.7217551e+03   1.7501306e+03
   1.3310185e-01  -5.7695728e+03  -5.0712492e+03   9.4183664e+02
   1.3425926e-01  -5.5753407e+03  -5.3525393e+03   1.2394768e+02
   1.3541667e-01  -5.3084779e+03  -5.5623773e+03  -6.9255664e+02
   1.3657407e-01  -4.9730478e+03  -5.6985245e+03  -1.4968749e+03
   1.3773148e-01  -4.5739656e+03  -5.7597532e+03  -2.2785244e+03
   1.3888889e-01  -4.1169110e+03  -5.7458353e+03  -3.0274703e+03
